wavelength [nm],transmittance,reflectance
300,0.0441272,0.0578224
301,0.0423498,0.0606473
302,0.0405809,0.0626124
303,0.0383853,0.0649835
304,0.0363559,0.0680844
305,0.0346821,0.0721249
306,0.0331533,0.0765216
307,0.0324473,0.0814818
308,0.0320302,0.0864389
309,0.0325314,0.0915847
310,0.0336057,0.096662
311,0.0355744,0.10167
312,0.0384033,0.106647
313,0.0420994,0.111375
314,0.0468441,0.116041
315,0.0524078,0.120365
316,0.0590165,0.12444
317,0.066378,0.128258
318,0.0744521,0.131416
319,0.0833152,0.13465
320,0.0921171,0.136677
321,0.101935,0.139171
322,0.110706,0.140179
323,0.120398,0.141451
324,0.128909,0.141897
325,0.13668,0.141246
326,0.144515,0.140787
327,0.148579,0.137628
328,0.150226,0.131911
329,0.136731,0.116157
330,0.0414804,0.0440651
331,0.0522742,0.10751
332,0.0602836,0.111832
333,0.0552363,0.100601
334,0.0724526,0.121231
335,0.0840203,0.133276
336,0.0928458,0.13686
337,0.102605,0.138379
338,0.113317,0.139653
339,0.124644,0.141198
340,0.137118,0.144026
341,0.149571,0.147925
342,0.159843,0.151516
343,0.168515,0.154704
344,0.17782,0.158836
345,0.186584,0.164295
346,0.18663,0.16936
347,0.115845,0.148714
348,0.0965813,0.107862
349,0.128448,0.153485
350,0.130249,0.142301
351,0.149212,0.145947
352,0.160927,0.155977
353,0.168376,0.161926
354,0.174468,0.166148
355,0.178646,0.170854
356,0.177418,0.17678
357,0.156233,0.180855
358,0.0414506,0.128618
359,0.0482203,0.10983
360,0.0685522,0.142942
361,0.0553728,0.112076
362,0.0673613,0.113986
363,0.078673,0.130258
364,0.0860301,0.137776
365,0.0933389,0.140683
366,0.102874,0.144562
367,0.115022,0.154212
368,0.122375,0.174966
369,0.0314068,0.144785
370,0.0174195,0.0921332
371,0.0350205,0.123593
372,0.0247407,0.102344
373,0.0264424,0.092479
374,0.0316331,0.0996923
375,0.0347062,0.1039
376,0.0366138,0.103304
377,0.038498,0.100267
378,0.0409377,0.0966579
379,0.044016,0.0935102
380,0.047583,0.0912088
381,0.0514535,0.0897693
382,0.0554892,0.0890536
383,0.0596002,0.088877
384,0.0637439,0.0890862
385,0.0678941,0.0895568
386,0.0720411,0.0902134
387,0.0761811,0.0910168
388,0.0802942,0.091937
389,0.0843839,0.0929933
390,0.0884248,0.0941889
391,0.0924023,0.0955522
392,0.0962899,0.0971087
393,0.100059,0.0988899
394,0.103681,0.100934
395,0.107101,0.103262
396,0.110269,0.105917
397,0.11313,0.108951
398,0.115577,0.112394
399,0.117513,0.116323
400,0.1188,0.120825
401,0.11927,0.126026
402,0.118707,0.132101
403,0.116813,0.13931
404,0.113098,0.148013
405,0.106644,0.158778
406,0.0954454,0.172524
407,0.0744008,0.190354
408,0.0311095,0.206943
409,0.00649733,0.152219
410,0.0439226,0.158793
411,0.041038,0.16848
412,0.0417906,0.146908
413,0.0547596,0.138264
414,0.060661,0.147922
415,0.0631428,0.154459
416,0.0654965,0.155535
417,0.0688243,0.153168
418,0.0733404,0.149149
419,0.0787463,0.144945
420,0.0845749,0.141569
421,0.0904525,0.139437
422,0.0961769,0.138442
423,0.101636,0.138252
424,0.106728,0.138656
425,0.111375,0.139666
426,0.115615,0.141306
427,0.119615,0.143346
428,0.123531,0.145348
429,0.127392,0.147045
430,0.131106,0.148575
431,0.134664,0.150251
432,0.138201,0.152067
433,0.141839,0.15365
434,0.145517,0.1548
435,0.149077,0.155823
436,0.152525,0.157093
437,0.156022,0.15845
438,0.159611,0.159461
439,0.163114,0.160189
440,0.166408,0.161139
441,0.169642,0.162385
442,0.17295,0.163423
443,0.176163,0.164131
444,0.179078,0.165056
445,0.181851,0.166386
446,0.184667,0.167546
447,0.187323,0.168389
448,0.189592,0.169561
449,0.191678,0.171152
450,0.19376,0.172475
451,0.195546,0.173607
452,0.196839,0.175288
453,0.197963,0.17725
454,0.198972,0.178815
455,0.199397,0.18057
456,0.199256,0.183083
457,0.198924,0.185515
458,0.198035,0.187753
459,0.196077,0.190953
460,0.193346,0.194827
461,0.189718,0.198574
462,0.183955,0.203661
463,0.175113,0.211311
464,0.161711,0.221277
465,0.138315,0.237351
466,0.104041,0.258146
467,0.12761,0.23901
468,0.144573,0.242376
469,0.139564,0.242459
470,0.139972,0.237927
471,0.1469,0.235836
472,0.150848,0.240724
473,0.153159,0.24405
474,0.154955,0.244886
475,0.157177,0.243738
476,0.159296,0.241818
477,0.161708,0.2397
478,0.164801,0.236971
479,0.167481,0.234507
480,0.169894,0.232831
481,0.172221,0.23122
482,0.173633,0.230491
483,0.174766,0.230494
484,0.175737,0.230237
485,0.175987,0.230771
486,0.176376,0.231166
487,0.176591,0.23091
488,0.175958,0.231543
489,0.17473,0.231498
490,0.168703,0.234258
491,0.142448,0.252589
492,0.124966,0.263814
493,0.142481,0.259567
494,0.147035,0.257907
495,0.140582,0.259723
496,0.137898,0.260626
497,0.138433,0.263322
498,0.140859,0.265466
499,0.142465,0.266456
500,0.143302,0.26612
501,0.143848,0.265382
502,0.14368,0.264537
503,0.143882,0.263441
504,0.143681,0.262554
505,0.143665,0.261483
506,0.143623,0.260818
507,0.143368,0.259982
508,0.143406,0.259544
509,0.143072,0.258992
510,0.143147,0.258479
511,0.142978,0.258049
512,0.143185,0.257041
513,0.143415,0.256341
514,0.144007,0.254422
515,0.144928,0.252716
516,0.146374,0.249299
517,0.148614,0.245108
518,0.151573,0.238783
519,0.154926,0.229458
520,0.145283,0.227079
521,0.119048,0.240137
522,0.123571,0.251014
523,0.131757,0.249912
524,0.130713,0.242292
525,0.122757,0.243316
526,0.119465,0.248265
527,0.118438,0.254861
528,0.119788,0.259014
529,0.119771,0.259462
530,0.120595,0.258867
531,0.119883,0.256974
532,0.119815,0.255808
533,0.118513,0.254188
534,0.11778,0.25363
535,0.116157,0.252919
536,0.115012,0.253192
537,0.113254,0.253469
538,0.11188,0.254536
539,0.110098,0.255676
540,0.108606,0.257318
541,0.106845,0.259039
542,0.105325,0.261012
543,0.103614,0.263032
544,0.102128,0.265116
545,0.100461,0.267181
546,0.0990402,0.269223
547,0.0974031,0.271174
548,0.0960725,0.273131
549,0.0944345,0.274865
550,0.0931994,0.276737
551,0.0915319,0.278208
552,0.0903947,0.280052
553,0.08867,0.281228
554,0.0876266,0.283124
555,0.0858261,0.283983
556,0.0848519,0.285976
557,0.0829892,0.286567
558,0.0820523,0.288698
559,0.0801401,0.289024
560,0.0791989,0.291322
561,0.0772873,0.29148
562,0.0762693,0.293857
563,0.0744268,0.294006
564,0.0732554,0.296311
565,0.0715549,0.29667
566,0.0701648,0.298702
567,0.0686617,0.299522
568,0.0670178,0.301044
569,0.0657197,0.302528
570,0.0638598,0.303433
571,0.0627141,0.305676
572,0.0607292,0.305956
573,0.0596055,0.308754
574,0.0576649,0.308773
575,0.0564142,0.311713
576,0.0546725,0.311987
577,0.0531737,0.314447
578,0.0517213,0.315587
579,0.0499637,0.317053
580,0.0487558,0.319377
581,0.046866,0.319757
582,0.0457329,0.32302
583,0.0439369,0.322907
584,0.0426644,0.326198
585,0.041158,0.326662
586,0.0396367,0.328886
587,0.0384513,0.330822
588,0.036769,0.331447
589,0.0357375,0.334821
590,0.0341388,0.334476
591,0.0330123,0.338046
592,0.031724,0.338344
593,0.0303819,0.340456
594,0.0294119,0.342651
595,0.0279818,0.342694
596,0.0271167,0.34646
597,0.0258744,0.345779
598,0.0248707,0.348985
599,0.023976,0.349892
600,0.0228219,0.350644
601,0.0221482,0.353934
602,0.021086,0.352841
603,0.0203642,0.356529
604,0.0196202,0.35643
605,0.0187513,0.357626
606,0.0182741,0.360428
607,0.017454,0.358979
608,0.0169766,0.362773
609,0.0164536,0.362063
610,0.0158458,0.363142
611,0.0155896,0.365773
612,0.0150354,0.363764
613,0.01478,0.367436
614,0.0145223,0.36652
615,0.0141504,0.366787
616,0.014131,0.36969
617,0.0138549,0.36692
618,0.0137977,0.370065
619,0.0138333,0.369585
620,0.0136817,0.368259
621,0.0138907,0.371687
622,0.0139146,0.36837
623,0.0140227,0.370053
624,0.0143639,0.370912
625,0.0144423,0.367434
626,0.0148364,0.37089
627,0.0152053,0.368214
628,0.0154536,0.366934
629,0.0160707,0.369647
630,0.0164508,0.364661
631,0.0169507,0.366117
632,0.0176997,0.365986
633,0.0181444,0.360845
634,0.0189202,0.363923
635,0.0197385,0.360222
636,0.0203251,0.356667
637,0.0213601,0.359479
638,0.0222362,0.352743
639,0.0230341,0.351513
640,0.0243069,0.352251
641,0.0252708,0.343561
642,0.0263294,0.344396
643,0.0278531,0.341751
644,0.028968,0.332183
645,0.0303356,0.334234
646,0.0321919,0.327209
647,0.0335398,0.317314
648,0.0352982,0.319389
649,0.0377045,0.306742
650,0.0394087,0.29633
651,0.0417558,0.296819
652,0.0452563,0.27547
653,0.0475754,0.262938
654,0.0510888,0.258263
655,0.0574326,0.216651
656,0.0613676,0.194419
657,0.0684019,0.162828
658,0.0841624,0.00191615
659,0.0763926,-0.0514072
660,0.0470438,0.135797
661,0.0368465,0.246696
662,0.0514894,0.182307
663,0.0665022,0.0595316
664,0.0633762,0.0190144
665,0.0552951,0.048477
666,0.0445782,0.141425
667,0.0347683,0.226135
668,0.0321846,0.249671
669,0.033724,0.242559
670,0.0340569,0.238951
671,0.0363573,0.222033
672,0.039761,0.198624
673,0.0403535,0.1862
674,0.0419474,0.167003
675,0.0448733,0.145123
676,0.0450055,0.136636
677,0.0453202,0.125523
678,0.0474168,0.113101
679,0.0474399,0.114834
680,0.0467582,0.117553
681,0.0478659,0.117771
682,0.0480323,0.12868
683,0.0469355,0.142237
684,0.0470906,0.150836
685,0.0473584,0.164141
686,0.0463836,0.180794
687,0.0459052,0.191869
688,0.0461551,0.202423
689,0.045622,0.216698
690,0.0449405,0.227168
691,0.0450837,0.233749
692,0.0450611,0.243593
693,0.0445549,0.252671
694,0.0445849,0.256405
695,0.0449658,0.261711
696,0.0448773,0.269209
697,0.0448617,0.271753
698,0.0454446,0.273264
699,0.0458741,0.278857
700,0.0459766,0.281565
701,0.0465644,0.280548
702,0.0474591,0.283729
703,0.0479141,0.287262
704,0.0484262,0.285404
705,0.0495718,0.285729
706,0.0505649,0.289728
707,0.0511253,0.28881
708,0.0522361,0.286468
709,0.0537688,0.289718
710,0.0546983,0.290993
711,0.0556036,0.287203
712,0.0573958,0.288135
713,0.0590281,0.291642
714,0.0599147,0.288633
715,0.0615022,0.28623
716,0.0638371,0.290337
717,0.0652732,0.2904
718,0.0664045,0.285316
719,0.0688933,0.287129
720,0.0714007,0.291002
721,0.0725381,0.286156
722,0.0743806,0.283024
723,0.0777167,0.288463
724,0.0799073,0.28771
725,0.080924,0.279368
726,0.0838674,0.281131
727,0.0876064,0.286225
728,0.0888944,0.276344
729,0.09008,0.26723
730,0.0939538,0.274021
731,0.0962319,0.26828
732,0.0943338,0.237435
733,0.0939937,0.226302
734,0.0894262,0.219698
735,0.0486839,0.0846417
736,-0.0350527,-0.198007
737,-0.0407326,-0.1728
738,0.00843326,0.0413323
739,0.045798,0.187625
740,0.05461,0.197752
741,0.0262491,0.0401473
742,-0.00496308,-0.109752
743,-0.00216506,-0.0925313
744,0.0128219,-0.0132477
745,0.0244193,0.0679192
746,0.0308549,0.136177
747,0.034249,0.174647
748,0.0367917,0.179512
749,0.0390671,0.16913
750,0.0398438,0.160168
751,0.0384778,0.146995
752,0.0361759,0.122312
753,0.0339295,0.0957345
754,0.0310102,0.076508
755,0.0269778,0.0569764
756,0.0234033,0.0322116
757,0.0217977,0.0126905
758,0.0211031,0.00441733
759,0.01988,-0.0018296
760,0.019167,-0.0100617
761,0.0203992,-0.0120789
762,0.0224358,-0.00531718
763,0.0235571,0.00200702
764,0.0243374,0.00684881
765,0.0260916,0.0147587
766,0.0282544,0.0273293
767,0.029492,0.0391357
768,0.0300372,0.047978
769,0.0310124,0.0573719
770,0.0323737,0.0689189
771,0.0331563,0.0796088
772,0.0332781,0.0876588
773,0.0335906,0.0949753
774,0.0343558,0.103213
775,0.0348872,0.1111
776,0.0348634,0.117087
777,0.034856,0.121785
778,0.0353012,0.126721
779,0.0357633,0.131868
780,0.0357757,0.135955
781,0.0356435,0.138588
782,0.0358924,0.140944
783,0.0363389,0.143885
784,0.0364554,0.146568
785,0.0362872,0.147867
786,0.0363685,0.148401
787,0.0367729,0.149616
788,0.0370037,0.151295
789,0.036863,0.151912
790,0.0367971,0.151328
791,0.0371125,0.151205
792,0.0374393,0.152098
793,0.0373814,0.152478
794,0.0372027,0.151384
795,0.0373808,0.150255
796,0.0377638,0.150429
797,0.0378417,0.150815
798,0.037618,0.149752
799,0.0376273,0.147985
800,0.0380007,0.147422
